time,x,y,radius
0.0,0.0934401776313845,0.10851982236861552,0.14320481361567616
0.01,0.08617321521107996,0.11662798917530377,0.14501003716601785
0.02,0.07822328372038867,0.12426705199367337,0.14683726477702702
0.03,0.06961913570972923,0.13138082571137255,0.14868673586292674
0.04,0.0603940549604813,0.1379147477970842,0.15055869132834207
0.05,0.05058577843027984,0.1438162373362225,0.15245337353088007
0.06,0.04023639021984955,0.14903505173239937,0.15437102624133506
0.07,0.029392187456186353,0.15352363893039336,0.15631189460143266
0.08,0.01810351814836485,0.1572374829864632,0.15827622507902595
0.09,0.006424591237663044,0.16013544079388092,0.16026426542065328
0.1,-0.0055867407678133075,0.1621800677659426,0.1622762646013658
0.11,-0.017869226013156117,0.16333793028580795,0.1643124727717306
0.12,-0.030358483638573963,0.16357990275262502,0.16637314120191343
0.13,-0.04298729933827716,0.1628814470867426,0.16845852222274174
0.14,-0.055685945059964256,0.1612228726035627,0.17056886916364886
0.15,-0.06838252159886522,0.15858957422582262,0.17270443628739526
0.16,-0.08100332267341386,0.15497224707783444,0.1748654787214634
0.17,-0.09347321890658843,0.15036707559237647,0.17705225238601868
0.18,-0.10571605997883449,0.1447758953613823,0.17926501391832833
0.19,-0.11765509306632531,0.1382063260750749,0.18150402059352735
0.2,-0.12921339553317687,0.13067187402043426,0.18376953024161938
0.21,-0.1403143197091559,0.12219200274847213,0.18606180116059778
0.22,-0.15088194745642367,0.11279217067023718,0.18838109202557168
0.23,-0.16084155211094261,0.10250383450322648,0.19072766179377837
0.24,-0.1701200652773014,0.09136441766229306,0.19310176960536435
0.25,-0.17864654586081635,0.07941724287149102,0.195503674679813
0.26,-0.1863526486387252,0.06671142846478703,0.19793363620789814
0.27,-0.1931730896039348,0.05330174804331598,0.2003919132390401
0.28,-0.19904610526089453,0.039248453363916434,0.20287876456394008
0.29,-0.2039139030144508,0.02461706054703286,0.20539444859236855
0.3,-0.20772309976964204,0.009478099910630191,0.20793922322598146
0.31,-0.21042514585388059,-0.006093170040610836,0.21051334572603875
0.32,-0.2119767313833307,-0.022017083716063014,0.21311707257589868
0.33,-0.21234017222292867,-0.03820992364803325,0.2157506593381618
0.34,-0.2114837727347156,-0.05458430859948467,0.21841436050633808
0.35000000000000003,-0.20938216257218303,-0.07104961313493001,0.22110842935091213
0.36,-0.2060166048592837,-0.08751241699480677,0.2238331177596809
0.37,-0.20137527319165313,-0.10387698239339563,0.22658867607224056
0.38,-0.19545349501433135,-0.12004575714527155,0.22937535290849967
0.39,-0.18825395906467385,-0.13591990131679846,0.23219339499109817
0.4,-0.17978688472089,-0.1513998348987096,0.2350430469616132
0.41000000000000003,-0.1700701512653285,-0.16638580380476747,0.23792455119043576
0.42,-0.15912938525671577,-0.1807784613212654,0.24083814758020483
0.43,-0.14699800440640104,-0.19447946196408655,0.24378407336268892
0.44,-0.13371721656952332,-0.20739206454551568,0.24676256288900905
0.45,-0.1193359726920226,-0.21942174111329996,0.24977384741310124
0.46,-0.10391087279760443,-0.2304767883008238,0.25281815486832165
0.47000000000000003,-0.08750602435405137,-0.2404689375208872,0.25589570963710234
0.48,-0.07019285262448113,-0.24931396034757564,0.2590067323135726
0.49,-0.05204986288499508,-0.25693226536212604,0.26215143945906677
0.5,-0.03316235467427292,-0.26324948269048365,0.2653300433504459
0.51,-0.013622088531583042,-0.2681970324332768,0.26854275172117087
0.52,0.006473094024151409,-0.27171267318396913,0.2717897674950695
0.53,0.027019696221787137,-0.2737410268486425,0.2750712885127542
0.54,0.04790903611770907,-0.2742340760217519,0.27838750725065226
0.55,0.06902775937177624,-0.27315163023669853,0.28173861053262456
0.56,0.09025839276304187,-0.270461757498469,0.28512477923415946
0.5700000000000001,0.11147993619199077,-0.26614117761805184,0.28854618797914094
0.58,0.13256849062456366,-0.26017561400486605,0.2920030048292039
0.59,0.15339791914903408,-0.25256010073390495,0.2954953909657032
0.6,0.17384053804179508,-0.24329924188842342,0.2990235003643399
0.61,0.19376783447422394,-0.23240742038635395,0.30258747946250136
0.62,0.21305120724194543,-0.21990895372864436,0.3061874668193939
0.63,0.23156272666190114,-0.20583819435963097,0.30982359276905874
0.64,0.24917590956352287,-0.19023957260250635,0.31349597906638804
0.65,0.2657665050998202,-0.17316758042586303,0.31720473852627185
0.66,0.2812132869240905,-0.1546866946089986,0.3209499746560333
0.67,0.2953988471199365,-0.13487123820280172,0.3247317812813284
0.68,0.3082103871379471,-0.11380517952810817,0.3285502421657122
0.6900000000000001,0.3195405008832718,-0.09158186831277902,0.33240543062409705
0.7000000000000001,0.32928794501582115,-0.06830370894063369,0.33629740913035483
0.71,0.33735839147022983,-0.044081771167855416,0.3402262289193413
0.72,0.3436651571772045,-0.019035339053543356,0.3441919295836497
0.73,0.34812990597245197,0.00670860075143968,0.3481945386654283
0.74,0.3506833177149166,0.03301592981153985,0.3522340712436287
0.75,0.35126571970325304,0.05974602586028316,0.35631052951708003
0.76,0.3498276755788444,0.0867524455487231,0.36042390238381994
0.77,0.3463305270356061,0.11388365923689932,0.3645741650171428
0.78,0.3407468838214319,0.1409838346827295,0.36876127843886164
0.79,0.3330610577134161,0.1678936660972018,0.3729851890903152
0.8,0.32326943637865996,0.1944512446601928,0.3772458284016864
0.81,0.31138079329409973,0.22049296623038148,0.38154311236023514
0.8200000000000001,0.29741653019168907,0.24585447163823673,0.38587694107808573
0.8300000000000001,0.28141084881854944,0.27037161462558473,0.3902471983602473
0.84,0.2634108491542504,0.29388145219143635,0.39465375127358254
0.85,0.24347655160786075,0.31622325182415256,0.39909644971747954
0.86,0.22168084112427178,0.33723950984715034,0.40357512599702033
0.87,0.19810933156075167,0.35677697488162297,0.4080895943994775
0.88,0.17286014914876244,0.3746876702374799,0.4126396507750108
0.89,0.1460436343305487,0.3908299088850897,0.41722507212247273
0.9,0.11778196175248828,0.4050692945374799,0.4218456161812711
0.91,0.08820867870507239,0.4172797022872931,0.4265010210302745
0.92,0.05746816281986926,0.4273442321967221,0.4311910046947836
0.93,0.025715000363951204,0.4351561292333511,0.43591526476262676
0.9400000000000001,-0.006886712991095813,0.44061966298160843,0.44067347801047424
0.9500000000000001,-0.0401641465085874,0.4436509606394417,0.445465300041499
0.96,-0.07393658087788937,0.44417878693367674,0.45029036493554386
0.97,-0.10801632336460877,0.4421452647558536,0.4551482849129848
0.98,-0.14220968759845518,0.4375065305334335,0.46003865001350963
0.99,-0.17631803345973207,0.43023331860911046,0.46496102779105647
1.0,-0.21013886202250975,0.4203114692032326,0.4699149630261792
1.01,-0.2434669600281585,0.4077423548804186,0.47489997745712953
1.02,-0.2760955879008645,0.3925432208303981,0.47991556953096104
1.03,-0.3078177048807701,0.37474743470365574,0.48496121417597465
1.04,-0.3384272244441847,0.35440464221302814,0.49003636259683736
1.05,-0.36772029280754226,0.331580825221075,0.4951404420937091
1.06,-0.39549658297595797,0.30635825957758267,0.5002728559067185
1.07,-0.4215605965017733,0.2788353705493915,0.5054329830871225
1.08,-0.4457229648665937,0.24912648429299203,0.5106201783964801
1.09,-0.4678017421950778,0.21736147445580664,0.5158337722351575
1.1,-0.4876236808529437,0.18368530365128402,0.5210730706014637
1.11,-0.5050254813778944,0.14825746023209438,0.5263373550826932
1.12,-0.5198550081427301,0.11125129148078586,0.5316258828793241
1.1300000000000001,-0.5319724621567954,0.07285323504394492,0.5369378868635845
1.1400000000000001,-0.541251502476761,0.03326195114967211,0.5422725756735578
1.1500000000000001,-0.547580307821875,-0.007312641135691932,0.5476291338439535
1.16,-0.5508625701731381,-0.0486504196420839,0.5530067219746125
1.17,-0.5510184123809013,-0.09052220214600668,0.5584044769377584
1.18,-0.5479852221112225,-0.13269097136792904,0.5638215121249369
1.19,-0.5417183948276363,-0.1749131758729715,0.5692569177345146
1.2,-0.532191978930964,-0.21694010017920912,0.5747097611005236
1.21,-0.5193992166641773,-0.2585192967546939,0.580179087063557
1.22,-0.5033529749303861,-0.29939607199494855,0.5856639183843191
1.23,-0.4840860607675474,-0.3393150177223956,0.591163256200342
1.24,-0.4616514168707852,-0.3780215792430179,0.5966760805262674
1.25,-0.43612219324913204,-0.41526365053840203,0.6022013507979813
1.26,-0.40759169184440214,-0.45079318676787106,0.6077380064607731
1.27,-0.37617318172171565,-0.4843678239101055,0.6132849676015628
1.28,-0.341999583259385,-0.5157524950906057,0.618841135625112
1.29,-0.3052230206155079,-0.5447210329243535,0.6244053939740025
1.3,-0.26601424262435613,-0.5710577470554808,0.6299766088920218
1.31,-0.22456191317180246,-0.5945589660006274,0.6355536302304593
1.32,-0.1810717730095629,-0.6150345324024541,0.6411352922966665
1.33,-0.1357656758866282,-0.6323092408764966,0.6467204147440874
1.34,-0.08888050279633924,-0.6462242077896315,0.6523078035028148
1.35,-0.04066695905235586,-0.6566381625427951,0.657896251749578
1.36,0.00861174019066057,-0.6634286502445343,0.6634845409159102
1.37,0.058681289472512416,-0.6664931360551661,0.6690714417330985
1.3800000000000001,0.10925781026296019,-0.6657500019528172,0.6746557153123607
1.3900000000000001,0.16004945771755,-0.6611394272208301,0.6802361142585486
1.4000000000000001,0.21075810799090167,-0.6526241445786879,0.6858113838155274
1.41,0.2610811164086731,-0.6401900645728378,0.6913802630412393
1.42,0.31071313611743334,-0.623846761606035,0.6969414860103162
1.43,0.3593479862100332,-0.6036278158098918,0.702493783041976
1.44,0.4066805577688398,-0.5795910058504032,0.7080358819508068
1.45,0.4524087457861066,-0.5518183486949333,0.7135665093179199
1.46,0.49623539451503934,-0.5204159833555158,0.719084391779842
1.47,0.5378702434815528,-0.4855138966508691,0.7245882573324078
1.48,0.5770318611494937,-0.44726549009126726,0.7300768366468218
1.49,0.6134495530848324,-0.40584698807893443,0.7355488643949655
1.5,0.6468652314099446,-0.3614566887241547,0.7410030805809592
1.51,0.6770352323798643,-0.31431405969568554,0.7464382318759134
1.52,0.703732069049818,-0.2646586826449652,0.7518530729527586
1.53,0.7267461062382017,-0.21274905085844034,0.7572463678180007
1.54,0.745887145321429,-0.158861225892424,0.7626168911372172
1.55,0.7609859068259281,-0.10328736002149662,0.7679634295511021
1.56,0.7718953993063842,-0.04633409237587643,0.7732847829788574
1.57,0.7784921636156639,0.011679172353178474,0.7785797659057502
1.58,0.7806773823774975,0.07042209280642646,0.7838472086516725
1.59,0.7783778452638873,0.12955531671753134,0.7890859586175843
1.6,0.7715467615505842,0.18873249197917707,0.7942948815067765
1.61,0.7601644123702893,0.24760235069234274,0.7994728625179477
1.62,0.7442386360982731,0.3058108531966376,0.8046188075071781
1.6300000000000001,0.7238051413819832,0.36300337848532976,0.8097316441159726
1.6400000000000001,0.6989276434574525,0.4188269469059313,0.8148103228626473
1.6500000000000001,0.6696978205729053,0.47293246064097405,0.8198538181944545
1.6600000000000001,0.6362350885553817,0.5249769471582432,0.8248611294979677
1.67,0.598686192800567,0.5746257906187686,0.8298312820653863
1.68,0.5572246182300672,0.6215549361370328,0.8347633280145667
1.69,0.5120498190346251,0.6654530518030104,0.8396563471607491
1.7,0.46338627129655396,0.7060236335008192,0.844509447838106
1.71,0.4114823528502065,0.7429870377940427,0.8493217676694199
1.72,0.3566090559858396,0.7760824284924068,0.8540924742823716
1.73,0.2990585398200795,0.8050696229667804,0.858820765971103
1.74,0.23914253033582314,0.8297308248368688,0.8635058723019148
1.75,0.17719057722654383,0.8498722303150456,0.8681470546621383
1.76,0.11354817775566296,0.8653254962462723,0.8727436067514268
1.77,0.04857477885235728,0.8759490587329006,0.8772948550148975
1.78,-0.017358330397160032,0.8816292921685156,0.8818001590177532
1.79,-0.08387022284672706,0.8822814995203054,0.8862589117612067
1.8,-0.15057262018985046,0.8778507257875202,0.8906705399397203
1.81,-0.21707224819998494,0.8683123877166068,0.8950345041397626
1.82,-0.28297324527272033,0.8536727140632309,0.8993502989804684
1.83,-0.3478796087580899,0.8339689919488193,0.9036174531967671
1.84,-0.4113976632059413,0.8092696161552885,0.9078355296657192
1.85,-0.47313853439286185,0.7796739395267607,0.9120041253769656
1.86,-0.5327206128577172,0.7453119239915974,0.9161228713483571
1.87,-0.5897719906457732,0.7063435930720994,0.9201914324879805
1.8800000000000001,-0.6439328550490486,0.6629582881028201,0.924209507403944
1.8900000000000001,-0.6948578233325483,0.6153737317216692,0.9281768281634162
1.9000000000000001,-0.7422182027510189,0.5638349035210273,0.9320931600025391
1.9100000000000001,-0.785704160586664,0.5086127340392959,0.9359583009889499
1.92,-0.8250267894718359,0.450002624527271,0.9397720816387541
1.93,-0.8599200538982426,0.38832280112937295,0.9435343644898786
1.94,-0.8901426045510858,0.32391251326841664,0.9472450436338281
1.95,-0.9154794479374427,0.2571300871060417,0.9509040442079345
1.96,-0.9357434596971119,0.18835084596143856,0.9545113218502492
1.97,-0.9507767309844491,0.11796491050148948,0.9580668621192886
1.98,-0.9604517383841967,0.046374892359383205,0.9615706798808759
1.99,-0.9646723289652778,-0.02600650440965993,0.9650228186643581
2.0,-0.9633745132758182,-0.09875895897283009,0.9684233499904971
2.0100000000000002,-0.956527060331761,-0.17145707084940265,0.9717723726733424
2.02,-0.9441318899415025,-0.24367294246399546,0.9750700120984006
2.0300000000000002,-0.9262242590309505,-0.3149787907233812,0.9783164194794018
2.04,-0.9028727399780246,-0.3849495709888377,0.9815117710959538
2.05,-0.8741789903235606,-0.4531655966996645,0.9846562675143459
2.06,-0.8402773145874679,-0.5192151378992287,0.9877501327937352
2.07,-0.8013340202754993,-0.5826969820223872,0.9907936136799089
2.08,-0.7575465715038942,-0.6432229405212456,0.9937869787887655
2.09,-0.7091425449874078,-0.7004202852330802,0.9967305177816154
2.1,-0.6563783944220147,-0.753934098827245,0.9996245405343309
2.11,-0.599538030538348,-0.8034295242036938,1.0024693763023262
2.12,-0.5389312252975318,-0.8485938983503472,1.0052653728832692
2.13,-0.4748918498397035,-0.8891387568952996,1.0080128957793617
2.14,-0.40777595686986745,-0.9248016964075326,1.010712327360949
2.15,-0.3379597191689502,-0.9553480824005797,1.013364066033141
2.16,-0.26583723684372057,-0.9805725919711725,1.0159685254070463
2.17,-0.19181822677186988,-1.0003005810525079,1.0185261334771383
2.18,-0.11632560845287582,-1.0143892673722348,1.0210373318061936
2.19,-0.03979300113679213,-1.0227287213710463,1.0235025747191493
2.2,0.037337852332053334,-1.0252426585510188,1.0259223285071493
2.21,0.11461971905450406,-1.0218890279755193,1.0282970706429564
2.22,0.19160255073465016,-1.0126603929263105,1.0306272890088317
2.23,0.2678361829336933,-0.997584101030033,1.032913481137888
2.24,0.3428730422438279,-0.9767222424870591,1.035156153469846
2.25,0.4162708446592902,-0.9501713963622901,1.0373558206220386
2.2600000000000002,0.4875952684803023,-0.9180621662213508,1.039513004676429
2.27,0.5564225852489766,-0.8805585077084278,1.0416282344833248
2.2800000000000002,0.6223422324828122,-0.8378568519554834,1.0437020449824
2.29,0.6849593123390343,-0.7901850299786789,1.0457349765415558
2.3000000000000003,0.743897000808899,-0.7378010044487581,1.0477275743140826
2.31,0.7987988526018309,-0.680991416410332,1.0496803876145118
2.32,0.8493309875309251,-0.6200699556632607,1.0515939693134868
2.33,0.8951841449494385,-0.5553755646007998,1.0534688752519055
2.34,0.9360755936074454,-0.487270486317432,1.0553056636745384
2.35,0.9717508851933679,-0.41613816874832604,1.057104894683259
2.36,1.0019854407907625,-0.3423810374766295,1.0588671297099708
2.37,1.0265859605102563,-0.2664181506392652,1.0605929310092594
2.38,1.0453916476433047,-0.18868275007205926,1.062282861170761
2.39,1.0582752398215394,-0.10961972345690217,1.063937482651168
2.4,1.0651438408457672,-0.029682992763838303,1.0655573573257757
2.41,1.0659395480647413,0.050667155283340676,1.0671430460594171
2.42,1.0606398714281489,0.13096678065049155,1.0686951082965965
2.43,1.0492579416031502,0.21075102703745796,1.0702141016706064
2.44,1.031842505821542,0.28955686807419717,1.07170058163137
2.45,1.0084777114074146,0.3669258461783032,1.0731551010917295
2.46,0.9792826782153008,0.44240678764200747,1.0745782100918726
2.47,0.9444108624785569,0.5155584776741662,1.07597045548156
2.48,0.9040492158195311,0.5859522793777916,1.077332380619806
2.49,0.8584171443994892,0.6531746809944419,1.078664525091636
2.5,0.8077652743800816,0.7168297561907846,1.0799674244415283
2.5100000000000002,0.752374031022323,0.7765415226968944,1.0812416099231432
2.52,0.6925520398568948,0.8319561852268124,1.082487608264915
2.5300000000000002,0.6286343594146419,0.8827442493155778,1.083705941451084
2.54,0.5609805560023464,0.9286024934888597,1.084897126517731
2.5500000000000003,0.48997263194051377,0.9692557880365646,1.0860616753633727
2.56,0.4160128195417032,1.004458749585047,1.0872000945736686
2.57,0.3395212538950232,1.0339972216481206,1.0883128852597865
2.58,0.2609335382303777,1.0576895723789346,1.0894005429099793
2.59,0.18069821626098168,1.0753878018365968,1.0904635572539085
2.6,0.09927416644114016,1.0869784522166308,1.0915024121392702
2.61,0.0171279335254073,1.0923833156661065,1.0925175854202656
2.62,-0.06526898682735845,1.0915599355055992,1.0935095488574655
2.63,-0.1474428943976752,1.084501897903873,1.0944787680286294
2.64,-0.22892064552045538,1.0712389122900972,1.0954257022500304
2.65,-0.30923241272147306,1.051836680035202,1.0963508045078543
2.66,-0.38791442664760917,1.0263965521813376,1.0972545213992426
2.67,-0.46451168418073385,0.9950549782390238,1.098137293082557
2.68,-0.5385806068369888,0.9579827492982423,1.0989995532364507
2.69,-0.6096916338580287,0.9153840399053099,1.0998417290273355
2.7,-0.6774317347964519,0.8674952543348947,1.1006642410848524
2.71,-0.7414068268816715,0.8145836840292242,1.1014675034849517
2.72,-0.80124408302181,0.7569459840778029,1.1022519237402013
2.73,-0.8565941169483359,0.6949064776645119,1.1030179027969573
2.74,-0.9071330327391188,0.6288152984087885,1.103765835039029
2.75,-0.9525643267579604,0.5590463814679949,1.104496108297492
2.7600000000000002,-0.9926206309196309,0.4859953151437578,1.1052091038663074
2.77,-1.027065287123817,0.41007706554105516,1.1059051965234143
2.7800000000000002,-1.0556937436936114,0.3317235875606212,1.1065847545569754
2.79,-1.0783347656983822,0.25138133615874625,1.1072481397964693
2.8000000000000003,-1.0948514521309056,0.16950869238014266,1.1078957076483231
2.81,-1.1051420540381263,0.08657331915608446,1.108527807135802
2.82,-1.1091405888672292,0.0030494622588550374,1.1091447809428723
2.83,-1.1068172474770774,-0.08058478788748372,1.109746965461769
2.84,-1.0981785914725881,-0.1638502576224803,1.1103346908440135
2.85,-1.0832675397392726,-0.24626945864837513,1.1109082810546245
2.86,-1.0621631442799062,-0.32736934773858817,1.1114680539292912
2.87,-1.0349801566780346,-0.40668406154265513,1.1120143212342721
2.88,-1.0018683877267334,-0.4837576106286257,1.1125473887288042
2.89,-0.9630118639587282,-0.5581465171495148,1.1130675562298085
2.9,-0.9186277859887801,-0.6294223808560228,1.1135751176786917
2.91,-0.8689652947244239,-0.6971743586013432,1.1140703612100535
2.92,-0.8143040526101564,-0.7610115429928895,1.1145535692221091
2.93,-0.7549526481366936,-0.820565226437134,1.1150250184486585
2.94,-0.6912468328648576,-0.8754910374939633,1.115484980032431
2.95,-0.623547601177252,-0.9254709372020249,1.1159337195996453
2.96,-0.5522391238746569,-0.9702150638521174,1.1163714973356391
2.97,-0.47772654757290767,-1.0094634155669535,1.116798568061416
2.98,-0.4004336726251976,-1.0429873609874774,1.11721518131098
2.99,-0.32080052298990536,-1.0705909693628493,1.1176215814093258
