time,x,y,radius,mu,omega
0.0,0.07732148933168115,0.054233230424757126,0.09444498925180776,1.0,12.566370614359172
0.01,0.07127265852818218,0.06448723011691074,0.09611656830030013,1.0,12.566370614359172
0.02,0.06387509632852903,0.07408253125058742,0.09781742875108261,1.0,12.566370614359172
0.03,0.05519825012586663,0.08284304949668739,0.0995480671176911,1.0,12.566370614359172
0.04,0.04533439795319177,0.09059968707995684,0.10130898744319014,1.0,12.566370614359172
0.05,0.034397996577914584,0.09719327370455083,0.10310070136513115,1.0,12.566370614359172
0.06,0.022524653135120264,0.10247745476898781,0.10492372817807909,1.0,12.566370614359172
0.07,0.009869723167511973,0.10632147897778456,0.10677859489348418,1.0,12.566370614359172
0.08,-0.0033934560049296847,0.10861283733700937,0.10866583629666249,1.0,12.566370614359172
0.09,-0.017075681531275613,0.10925970616161797,0.1105859950006358,1.0,12.566370614359172
0.1,-0.030974329725134794,0.10819314814104228,0.11253962149656843,1.0,12.566370614359172
0.11,-0.04487610204672915,0.10536902771162605,0.11452727420052337,1.0,12.566370614359172
0.12,-0.05856003942981583,0.1007695999634027,0.11654951949624587,1.0,12.566370614359172
0.13,-0.0718007665490525,0.09440473604502973,0.11860693177366688,1.0,12.566370614359172
0.14,-0.0843719225757718,0.08631275249230126,0.12070009346280261,1.0,12.566370614359172
0.15,-0.09604973043302743,0.07656081704770323,0.12282959506270923,1.0,12.566370614359172
0.16,-0.10661665262502239,0.06524490930362978,0.1249960351651346,1.0,12.566370614359172
0.17,-0.11586507846617337,0.052489320820806144,0.1272000204724906,1.0,12.566370614359172
0.18,-0.12360098504779142,0.03844568616547715,0.12944216580974963,1.0,12.566370614359172
0.19,-0.1296475126229873,0.023291543482858276,0.13172309412985078,1.0,12.566370614359172
0.2,-0.13384839431948395,0.007228430679640411,0.13404343651217848,1.0,12.566370614359172
0.21,-0.13607118025000323,-0.009520469083728177,0.13640383215365723,1.0,12.566370614359172
0.22,-0.13621019721203567,-0.02671311120511925,0.1388049283519815,1.0,12.566370614359172
0.23,-0.13418918727013796,-0.04409177374950164,0.1412473804804797,1.0,12.566370614359172
0.24,-0.1299635715964757,-0.06138660541224407,0.14373185195408433,1.0,12.566370614359172
0.25,-0.12352228999560512,-0.07831949377301142,0.14625901418585843,1.0,12.566370614359172
0.26,-0.11488917152799596,-0.09460820359238592,0.14882954653350128,1.0,12.566370614359172
0.27,-0.10412379752802547,-0.10997072877988005,0.15144413623523093,1.0,12.566370614359172
0.28,-0.09132182502469109,-0.12412979621720532,0.15410347833441404,1.0,12.566370614359172
0.29,-0.07661474604015633,-0.136817454966201,0.15680827559228527,1.0,12.566370614359172
0.3,-0.06016906637065622,-0.14777968062986374,0.15955923838807,1.0,12.566370614359172
0.31,-0.042184896140502914,-0.15678092186011755,0.1623570846057951,1.0,12.566370614359172
0.32,-0.022893953544434378,-0.1636085142976395,0.16520253950704156,1.0,12.566370614359172
0.33,-0.0025569926264772218,-0.16807688665343545,0.168096335588863,1.0,12.566370614359172
0.34,0.018539324454708045,-0.1700314842495068,0.171039212426061,1.0,12.566370614359172
0.35000000000000003,0.04008608060075117,-0.16935233716037415,0.17403191649697755,1.0,12.566370614359172
0.36,0.06175624282390208,-0.1659572031537289,0.1770752009919311,1.0,12.566370614359172
0.37,0.08320923840463416,-0.15980421991323193,0.18016982560338962,1.0,12.566370614359172
0.38,0.1040959106313087,-0.15089400651585858,0.18331655629694055,1.0,12.566370614359172
0.39,0.12406378844232567,-0.13927116078644558,0.1865161650620828,1.0,12.566370614359172
0.4,0.14276259689220339,-0.12502510689929675,0.1897694296418323,1.0,12.566370614359172
0.41000000000000003,0.15984992886564303,-0.10829025635699244,0.19307713324009726,1.0,12.566370614359172
0.42,0.17499699300503752,-0.08924545514675856,0.19644006420574506,1.0,12.566370614359172
0.43,0.18789434852271747,-0.06811270033332721,0.19985901569224754,1.0,12.566370614359172
0.44,0.19825753455114098,-0.04515512045547593,0.2033347852917582,1.0,12.566370614359172
0.45,0.20583250003757664,-0.020674225697127315,0.20686817464243923,1.0,12.566370614359172
0.46,0.21040073999151565,0.004993554264883005,0.21045998900782473,1.0,12.566370614359172
0.47000000000000003,0.21178404519963745,0.03148101475490693,0.2141110368269715,1.0,12.566370614359172
0.48,0.2098487753691748,0.05839496091396337,0.21782212923412003,1.0,12.566370614359172
0.49,0.20450957005710532,0.08532157901224582,0.22159407954655508,1.0,12.566370614359172
0.5,0.19573241767639532,0.11183232906394742,0.22542770271932838,1.0,12.566370614359172
0.51,0.18353701030301983,0.1374902828116245,0.22932381476547806,1.0,12.566370614359172
0.52,0.16799832087465588,0.16185682123761946,0.23328323214035454,1.0,12.566370614359172
0.53,0.1492473495843119,0.18449859686885006,0.23730677108864015,1.0,12.566370614359172
0.54,0.12747099771526155,0.20499465844942744,0.24139524695263082,1.0,12.566370614359172
0.55,0.1029110396989382,0.22294362923148806,0.24554947344033065,1.0,12.566370614359172
0.56,0.07586217764357975,0.23797082533104735,0.2497702618518984,1.0,12.566370614359172
0.5700000000000001,0.04666917679598083,0.24973519744662515,0.2540584202629768,1.0,12.566370614359172
0.58,0.015723095160359645,0.2579359778562897,0.2584147526634307,1.0,12.566370614359172
0.59,-0.01654336441070817,0.26231891508184013,0.2628400580500224,1.0,12.566370614359172
0.6,-0.04966133614944822,0.26268198099874873,0.2673351294715595,1.0,12.566370614359172
0.61,-0.08313204878118391,0.2588804395102885,0.2719007530250648,1.0,12.566370614359172
0.62,-0.11643378520606949,0.2508311721968377,0.2765377068015369,1.0,12.566370614359172
0.63,-0.14902945724390926,0.23851616456810432,0.28124675977990077,1.0,12.566370614359172
0.64,-0.1803746951180967,0.2219850666261867,0.2860286706677827,1.0,12.566370614359172
0.65,-0.2099263393821868,0.20135675329775404,0.29088418668779104,1.0,12.566370614359172
0.66,-0.2371512123982167,0.17681982378873362,0.29581404230804004,1.0,12.566370614359172
0.67,-0.2615350374834309,0.1486319938978169,0.30081895791572094,1.0,12.566370614359172
0.68,-0.2825913666580116,0.11711835160876534,0.3058996384326028,1.0,12.566370614359172
0.6900000000000001,-0.29987037273586215,0.08266846365050537,0.311056771871438,1.0,12.566370614359172
0.7000000000000001,-0.31296735846332324,0.045732338926995984,0.3162910278323492,1.0,12.566370614359172
0.71,-0.3215308346580165,0.006815273511398302,0.32160305593839733,1.0,12.566370614359172
0.72,-0.32527002093082075,-0.03352837901296418,0.32699348420966057,1.0,12.566370614359172
0.73,-0.3239616266523725,-0.07470244899900924,0.3324629173753078,1.0,12.566370614359172
0.74,-0.31745577637811767,-0.11607712233672748,0.3380119351233164,1.0,12.566370614359172
0.75,-0.30568095296017783,-0.15699794244338394,0.34364109028767,1.0,12.566370614359172
0.76,-0.28864784299678087,-0.19679552570172426,0.3493509069730781,1.0,12.566370614359172
0.77,-0.2664519830059012,-0.23479585750216783,0.35514187861748353,1.0,12.566370614359172
0.78,-0.2392751206225997,-0.2703310217255072,0.3610144659928689,1.0,12.566370614359172
0.79,-0.20738522303180457,-0.3027502040621846,0.36696909514514403,1.0,12.566370614359172
0.8,-0.17113508454251275,-0.33143079927950864,0.3730061552741817,1.0,12.566370614359172
0.81,-0.13095950643026405,-0.3557894446715037,0.37912599655538703,1.0,12.566370614359172
0.8200000000000001,-0.08737104463156764,-0.3752927966801855,0.38532892790451956,1.0,12.566370614359172
0.8300000000000001,-0.04095434424405815,-0.3894678652502019,0.3916152146878492,1.0,12.566370614359172
0.84,0.007640896281190454,-0.3979117210202601,0.39798507638011404,1.0,12.566370614359172
0.85,0.057708264247698364,-0.40030039407079326,0.40443868417315687,1.0,12.566370614359172
0.86,0.10849418419734731,-0.3963967896974669,0.41097615853855285,1.0,12.566370614359172
0.87,0.15920856753696616,-0.3860574565743789,0.417597566748001,1.0,12.566370614359172
0.88,0.20903642378652382,-0.3692380556672708,0.42430292035573564,1.0,12.566370614359172
0.89,0.2571502760703833,-0.34599739426050197,0.43109217264771993,1.0,12.566370614359172
0.9,0.3027232044505573,-0.31649990832261243,0.4379652160629152,1.0,12.566370614359172
0.91,0.34494232390294743,-0.2810164979507944,0.44492187959246815,1.0,12.566370614359172
0.92,0.38302248953261764,-0.23992364454845555,0.45196192616323094,1.0,12.566370614359172
0.93,0.41622001035236056,-0.19370076439540573,0.4590850500126133,1.0,12.566370614359172
0.9400000000000001,0.44384614491497254,-0.14292578101227327,0.46629087406237224,1.0,12.566370614359172
0.9500000000000001,0.4652801475565651,-0.08826892780078192,0.4735789472995591,1.0,12.566370614359172
0.96,0.4799816331904456,-0.030484822421532505,0.48094874217346684,1.0,12.566370614359172
0.97,0.48750203164907563,0.02959711522054638,0.48839965201805235,1.0,12.566370614359172
0.98,0.48749490960666997,0.09108379917434437,0.4959309885099414,1.0,12.566370614359172
0.99,0.4797249491648957,0.1530310358651032,0.5035419791727481,1.0,12.566370614359172
1.0,0.46407538721959257,0.2144573441495934,0.5112317649390655,1.0,12.566370614359172
1.01,0.44055373864865194,0.27435884943056765,0.5189993977820876,1.0,12.566370614359172
1.02,0.40929564900034976,0.33172503945348575,0.52684383842941,1.0,12.566370614359172
1.03,0.3705667484764638,0.38555514729462287,0.5347639541721162,1.0,12.566370614359172
1.04,0.3247624082840137,0.4348749081124536,0.5427585167827838,1.0,12.566370614359172
1.05,0.27240533249393434,0.47875342092606354,0.5508262005565272,1.0,12.566370614359172
1.06,0.21414095295031815,0.5163198354137111,0.5589655804896327,1.0,12.566370614359172
1.07,0.15073063101616657,0.5467795768467906,0.5671751306107199,1.0,12.566370614359172
1.08,0.08304270746336972,0.5694298200826825,0.5754532224796756,1.0,12.566370614359172
1.09,0.012041480012154951,0.5836739262576937,0.5837981238698483,1.0,12.566370614359172
1.1,-0.0612257737428597,0.5890345635946995,0.5922079976491452,1.0,12.566370614359172
1.11,-0.13564357268585978,0.5851652466320139,0.6006809008757393,1.0,12.566370614359172
1.12,-0.21004461620244902,0.5718600461648711,0.6092147841240579,1.0,12.566370614359172
1.1300000000000001,-0.283227549999529,0.5490612451511114,0.6178074910565787,1.0,12.566370614359172
1.1400000000000001,-0.35397585628662254,0.5168647435564151,0.6264567582566943,1.0,12.566370614359172
1.1500000000000001,-0.42107758268360435,0.47552304729523165,0.6351602153375248,1.0,12.566370614359172
1.16,-0.48334560001818616,0.42544571266137343,0.6439153853410279,1.0,12.566370614359172
1.17,-0.5396380595598262,0.36719715744657744,0.6527196854411097,1.0,12.566370614359172
1.18,-0.588878705733502,0.3014917927400554,0.6615704279636273,1.0,12.566370614359172
1.19,-0.6300766914241231,0.2291864745321676,0.6704648217352299,1.0,12.566370614359172
1.2,-0.6623455399941487,0.15127032098563417,0.6793999737718844,1.0,12.566370614359172
1.21,-0.6849209013729569,0.0688519888030666,0.6883728913166768,1.0,12.566370614359172
1.22,-0.6971767592127331,-0.01685545032274377,0.6973804842350779,1.0,12.566370614359172
1.23,-0.6986397622062936,-0.10455184550629222,0.7064195677743066,1.0,12.566370614359172
1.24,-0.6890013751734392,-0.19286928212257598,0.7154868656917247,1.0,12.566370614359172
1.25,-0.6681275742677948,-0.2803931020508811,0.7245790137553554,1.0,12.566370614359172
1.26,-0.6360658453348143,-0.36568431509478116,0.7336925636176443,1.0,12.566370614359172
1.27,-0.5930492846386941,-0.44730305358164363,0.7428239870614907,1.0,12.566370614359172
1.28,-0.5394976463249815,-0.5238326929226358,0.7519696806153658,1.0,12.566370614359172
1.29,-0.4760152304344011,-0.5939042375777683,0.7611259705320442,1.0,12.566370614359172
1.3,-0.4033855582617239,-0.6562205550611148,0.7702891181230852,1.0,12.566370614359172
1.31,-0.3225628374940732,-0.7095800308792782,0.7794553254387742,1.0,12.566370614359172
1.32,-0.23466027691462016,-0.7528992150457808,0.7886207412807497,1.0,12.566370614359172
1.33,-0.14093536850049906,-0.7852340363504493,0.7977814675320493,1.0,12.566370614359172
1.34,-0.04277231240758737,-0.8057991740407432,0.8069335657868224,1.0,12.566370614359172
1.35,0.05833818348192567,-0.8139851979968215,0.8160730642595033,1.0,12.566370614359172
1.36,0.1608214441819727,-0.8093731177042945,0.8251959649508384,1.0,12.566370614359172
1.37,0.2630433732277393,-0.7917460170402805,0.8342982510458571,1.0,12.566370614359172
1.3800000000000001,0.36333662299125863,-0.7610974956239867,0.8433758945166718,1.0,12.566370614359172
1.3900000000000001,0.460027969991105,-0.7176366876229188,0.8524248639009374,1.0,12.566370614359172
1.4000000000000001,0.5514664428009505,-0.6617896846834288,0.8614411322249049,1.0,12.566370614359172
1.41,0.6360517249694645,-0.5941972501669147,0.8704206850383062,1.0,12.566370614359172
1.42,0.7122623383759819,-0.5157087760956598,0.8793595285268165,1.0,12.566370614359172
1.43,0.778683104217869,-0.42737250101521645,0.8882536976665946,1.0,12.566370614359172
1.44,0.8340313797534348,-0.330422075148786,0.8970992643844092,1.0,12.566370614359172
1.45,0.8771815792336909,-0.22625962747657083,0.9058923456861464,1.0,12.566370614359172
1.46,0.9071875071907674,-0.11643555640571453,0.9146291117160589,1.0,12.566370614359172
1.47,0.9233020612660052,-0.002625330179611071,0.9233057937089998,1.0,12.566370614359172
1.48,0.9249938997222895,0.11339635619875993,0.9319186917980586,1.0,12.566370614359172
1.49,0.9119607151704945,0.22978366524930308,0.9404641826405105,1.0,12.566370614359172
1.5,0.8841388101444493,0.34464949102837,0.948938726825793,1.0,12.566370614359172
1.51,0.8417087311063787,0.4560966296063971,0.957338876030335,1.0,12.566370614359172
1.52,0.7850967842219141,0.5622497193191364,0.965661279885467,1.0,12.566370614359172
1.53,0.7149723276381347,0.6612873998661728,0.9739026925263405,1.0,12.566370614359172
1.54,0.6322408097401305,0.7514741249328405,0.9820599787917408,1.0,12.566370614359172
1.55,0.5380325995693729,0.8311910589176907,0.9901301200469003,1.0,12.566370614359172
1.56,0.43368773281380174,0.8989654948241754,0.9981102196038522,1.0,12.566370614359172
1.57,0.3207367730423388,0.9534982474814636,1.0059975077165129,1.0,12.566370614359172
1.58,0.20087806166763844,0.9936885038422991,1.0137893461304939,1.0,12.566370614359172
1.59,0.07595170001835415,1.0186556498002828,1.021483232170609,1.0,12.566370614359172
1.6,-0.05208932851908547,1.0277576402020359,1.0290768023521017,1.0,12.566370614359172
1.61,-0.1812104303874018,1.0206055347301803,1.03656783550478,1.0,12.566370614359172
1.62,-0.3093285517702321,0.9970738861451344,1.043954255402424,1.0,12.566370614359172
1.6300000000000001,-0.43434664932372963,0.9573067378748771,1.0512341328930437,1.0,12.566370614359172
1.6400000000000001,-0.5541888931190723,0.901719063864486,1.058405687528741,1.0,12.566370614359172
1.6500000000000001,-0.6668359922917576,0.8309935635537267,1.0654672886970555,1.0,12.566370614359172
1.6600000000000001,-0.7703600240178027,0.7460728073611169,1.0724174562587128,1.0,12.566370614359172
1.67,-0.8629581478788264,0.6481468115738245,1.079254860699626,1.0,12.566370614359172
1.68,-0.9429846005159104,0.5386362045000734,1.0859783228077786,1.0,12.566370614359172
1.69,-1.008980389562268,0.41917122656029204,1.0925868128882417,1.0,12.566370614359172
1.7,-1.0597001408231115,0.2915668841330858,1.0990794495320155,1.0,12.566370614359172
1.71,-1.0941355979603795,0.15779464895360792,1.1054554979566158,1.0,12.566370614359172
1.72,-1.1115353287607364,0.019951160299434667,1.111714367938335,1.0,12.566370614359172
1.73,-1.111420255451348,-0.11977555517218219,1.1178556113579,1.0,12.566370614359172
1.74,-1.0935946973457402,-0.25914178237075425,1.1238789193827832,1.0,12.566370614359172
1.75,-1.058152691072926,-0.39588513311548673,1.1297841193107387,1.0,12.566370614359172
1.76,-1.005479435368707,-0.5277622473088209,1.1355711711001786,1.0,12.566370614359172
1.77,-0.9362477923983248,-0.6525865324036243,1.1412401636138307,1.0,12.566370614359172
1.78,-0.8514098642813586,-0.768265288216404,1.1467913106026901,1.0,12.566370614359172
1.79,-0.7521837503173014,-0.872835570424266,1.1522249464576153,1.0,12.566370614359172
1.8,-0.6400356757759272,-0.9644981639813281,1.1575415217560452,1.0,12.566370614359172
1.81,-0.5166577654611628,-1.0416490669012066,1.1627415986312162,1.0,12.566370614359172
1.82,-0.38394181307927167,-1.102907924866767,1.1678258459909665,1.0,12.566370614359172
1.83,-0.24394946932619754,-1.1471429072385695,1.172795034612737,1.0,12.566370614359172
1.84,-0.09887933625132828,-1.1734915743470717,1.1776500321407342,1.0,12.566370614359172
1.85,0.04896848831232875,-1.1813773534119896,1.182391798010419,1.0,12.566370614359172
1.86,0.19722982565021346,-1.170521314830916,1.187021378324548,1.0,12.566370614359172
1.87,0.34351516324700937,-1.1409490205916097,1.1915399007039476,1.0,12.566370614359172
1.8800000000000001,0.48544908124947383,-1.0929923007643707,1.1959485691350407,1.0,12.566370614359172
1.8900000000000001,0.6207096912317666,-1.0272859009282542,1.2002486588349142,1.0,12.566370614359172
1.9000000000000001,0.7470674175074901,-0.9447590314403923,1.2044415111534053,1.0,12.566370614359172
1.9100000000000001,0.8624224602013252,-0.8466219371195156,1.2085285285303393,1.0,12.566370614359172
1.92,0.9648402997381095,-0.7343476916443041,1.2125111695246535,1.0,12.566370614359172
1.93,1.0525846339576008,-0.6096495032664766,1.2163909439307405,1.0,12.566370614359172
1.94,1.124147181154124,-0.4744538958764787,1.220169407995927,1.0,12.566370614359172
1.95,1.178273834224537,-0.33087020069683404,1.2238481597515904,1.0,12.566370614359172
1.96,1.2139867118704406,-0.18115685768969322,1.2274288344690327,1.0,12.566370614359172
1.97,1.2306017213759184,-0.0276850810608035,1.230913100249858,1.0,12.566370614359172
1.98,1.2277413226744145,0.12709951091522292,1.2343026537592836,1.0,12.566370614359172
1.99,1.2053422639230076,0.2807166659032897,1.2375992161095208,1.0,12.566370614359172
2.0,1.1636581432293884,0.43069200669684427,1.2408045288991423,1.0,12.566370614359172
2.0100000000000002,1.1032567380756662,0.5745976053401741,1.2439203504131693,1.0,12.566370614359172
2.02,1.0250121318677166,0.7100919457633951,1.2469484519875091,1.0,12.566370614359172
2.0300000000000002,0.9300917544133939,0.8349586077693884,1.2498906145403206,1.0,12.566370614359172
2.04,0.819938538517589,0.9471430257222417,1.2527486252719031,1.0,12.566370614359172
2.05,0.6962484768375341,1.0447867066751235,1.2555242745338049,1.0,12.566370614359172
2.06,0.5609439402933357,1.1262583343874644,1.2582193528669947,1.0,12.566370614359172
2.07,0.41614319038918185,1.190181236990922,1.2608356482081746,1.0,12.566370614359172
2.08,0.26412658159100333,1.2354567560869403,1.2633749432626145,1.0,12.566370614359172
2.09,0.1073000053747725,1.2612831227697507,1.2658390130412478,1.0,12.566370614359172
2.1,-0.05184382620185571,1.2671695203174,1.2682296225592107,1.0,12.566370614359172
2.11,-0.2107656232932033,1.252945092825742,1.2705485246924966,1.0,12.566370614359172
2.12,-0.3669206276150212,1.2187627425396994,1.2727974581889652,1.0,12.566370614359172
2.13,-0.5177999138053563,1.1650976446659511,1.2749781458295593,1.0,12.566370614359172
2.14,-0.6609712047002645,1.0927404955985156,1.2770922927352621,1.0,12.566370614359172
2.15,-0.7941185300918199,1.0027855973078064,1.2791415848150536,1.0,12.566370614359172
2.16,-0.9150800772643191,0.8966139657000909,1.281127687349905,1.0,12.566370614359172
2.17,-1.0218836110639429,0.7758717326480057,1.2830522437076761,1.0,12.566370614359172
2.18,-1.112778880938634,0.6424441887812747,1.284916874183645,1.0,12.566370614359172
2.19,-1.1862664816137973,0.49842588574645397,1.2867231749613104,1.0,12.566370614359172
2.2,-1.241122692016767,0.3460872813309097,1.2884727171880541,1.0,12.566370614359172
2.21,-1.2764198827601072,0.18783846755247588,1.2901670461602204,1.0,12.566370614359172
