time,x,y,radius,mu,omega
0.0,-0.05910069965543806,-0.14948970249768534,0.16074844898974536,1.0,3.141592653589793
0.01,-0.054980077481923614,-0.15280267452667912,0.16239293784652262,1.0,3.141592653589793
0.02,-0.050714941606739776,-0.1560176550412951,0.1640533876113492,1.0,3.141592653589793
0.03,-0.046307002660824076,-0.15912909863808639,0.16572992647316112,1.0,3.141592653589793
0.04,-0.04175816574436628,-0.1621314599698372,0.16742268280697475,1.0,3.141592653589793
0.05,-0.037070532404257665,-0.16501920001349493,0.16913178514350566,1.0,3.141592653589793
0.06,-0.032246402429997933,-0.16778679246878653,0.17085736213766445,1.0,3.141592653589793
0.07,-0.02728827546179735,-0.1704287302831422,0.17259954253590293,1.0,3.141592653589793
0.08,-0.022198852404675465,-0.172939532298298,0.17435845514238368,1.0,3.141592653589793
0.09,-0.016981036642430034,-0.17531375001369365,0.17613422878394597,1.0,3.141592653589793
0.1,-0.011637935045430942,-0.1775459744615282,0.1779269922738405,1.0,3.141592653589793
0.11,-0.006172858766284023,-0.17963084318807973,0.17973687437420563,1.0,3.141592653589793
0.12,-0.0005893238175090623,-0.18156304733563894,0.18156400375725731,1.0,3.141592653589793
0.13,0.0051089485745152005,-0.18333733881914996,0.1834085089651645,1.0,3.141592653589793
0.14,0.010918031844968142,-0.18494853759139468,0.18527051836858252,1.0,3.141592653589793
0.15,0.016833794200867856,-0.18639153899030053,0.1871501601238158,1.0,3.141592653589793
0.16,0.02285189897157929,-0.18766132116169507,0.18904756212858215,1.0,3.141592653589793
0.17,0.028967805204766724,-0.18875295255057603,0.19096285197634988,1.0,3.141592653589793
0.18,0.03517676851285006,-0.18966159945371067,0.19289615690922,1.0,3.141592653589793
0.19,0.041473842174857084,-0.19038253362612556,0.19484760376932478,1.0,3.141592653589793
0.2,0.04785387849838616,-0.19091113993379713,0.1968173189487149,1.0,3.141592653589793
0.21,0.05431153044620583,-0.19124292404460366,0.1988054283377071,1.0,3.141592653589793
0.22,0.06084125353181948,-0.19137352014935308,0.2008120572716638,1.0,3.141592653589793
0.23,0.06743730798811408,-0.1912986987044569,0.20283733047617822,1.0,3.141592653589793
0.24,0.07409376121299245,-0.19101437418757977,0.20488137201063616,1.0,3.141592653589793
0.25,0.08080449049565828,-0.19051661285735652,0.20694430521012844,1.0,3.141592653589793
0.26,0.08756318602698167,-0.18980164050803539,0.20902625262568647,1.0,3.141592653589793
0.27,0.09436335419712127,-0.18886585020967633,0.21112733596281477,1.0,3.141592653589793
0.28,0.10119832118331605,-0.18770581002430922,0.2132476760182949,1.0,3.141592653589793
0.29,0.10806123683048569,-0.18631827068823625,0.21538739261523457,1.0,3.141592653589793
0.3,0.11494507882699394,-0.18470017325044943,0.21754660453633812,1.0,3.141592653589793
0.31,0.12184265717763329,-0.18284865665692532,0.21972542945537377,1.0,3.141592653589793
0.32,0.12874661897558215,-0.18076106527035682,0.22192398386681403,1.0,3.141592653589793
0.33,0.13564945347476806,-0.17843495631468725,0.22414238301362732,1.0,3.141592653589793
0.34,0.14254349746374115,-0.17586810723362314,0.22638074081319892,1.0,3.141592653589793
0.35000000000000003,0.1494209409418221,-0.17305852295212215,0.22863916978136026,1.0,3.141592653589793
0.36,0.15627383309793796,-0.17000444302968012,0.23091778095450755,1.0,3.141592653589793
0.37,0.16309408859219707,-0.16670434869407763,0.23321668380979105,1.0,3.141592653589793
0.38,0.16987349413988148,-0.1631569697440918,0.23553598618335764,1.0,3.141592653589793
0.39,0.17660371539715192,-0.15936129130953441,0.23787579418663118,1.0,3.141592653589793
0.4,0.18327630414736587,-0.15531656045684236,0.24023621212061627,1.0,3.141592653589793
0.41000000000000003,0.1898827057865046,-0.15102229262832267,0.24261734238821223,1.0,3.141592653589793
0.42,0.19641426710578958,-0.14647827790304122,0.24501928540452694,1.0,3.141592653589793
0.43,0.20286224436914338,-0.14168458706724288,0.24744213950518043,1.0,3.141592653589793
0.44,0.2092178116827142,-0.13664157748210273,0.24988600085259108,1.0,3.141592653589793
0.45,0.2154720696532378,-0.13134989873653097,0.2523509633402391,1.0,3.141592653589793
0.46,0.22161605433155543,-0.12581049807269207,0.2548371184949041,1.0,3.141592653589793
0.47000000000000003,0.22764074643714077,-0.12002462557185024,0.25734455537687495,1.0,3.141592653589793
0.48,0.2335370808590164,-0.11399383908811858,0.25987336047813486,1.0,3.141592653589793
0.49,0.23929595642795565,-0.10772000891767089,0.26242361761852373,1.0,3.141592653589793
0.5,0.24490824595437563,-0.10120532219097178,0.2649954078398857,1.0,3.141592653589793
0.51,0.2503648065258265,-0.0944522869755938,0.2675888092982112,1.0,3.141592653589793
0.52,0.25565649005747465,-0.0874637360772205,0.2702038971537852,1.0,3.141592653589793
0.53,0.2607741540884623,-0.08024283052648208,0.2728407434593572,1.0,3.141592653589793
0.54,0.2657086728165031,-0.07279306273933604,0.27549941704635317,1.0,3.141592653589793
0.55,0.2704509483625459,-0.06511825933878988,0.2781799834091489,1.0,3.141592653589793
0.56,0.2749919222568005,-0.05722258362586719,0.28088250458743347,1.0,3.141592653589793
0.5700000000000001,0.27932258713688296,-0.04911053768784219,0.28360703904668966,1.0,3.141592653589793
0.58,0.28343399864828744,-0.04078696413191284,0.2863536415568263,1.0,3.141592653589793
0.59,0.2873172875368453,-0.03225704743264847,0.2891223630689995,1.0,3.141592653589793
0.6,0.290963671922275,-0.023526314881735746,0.29191325059066414,1.0,3.141592653589793
0.61,0.2943644697413704,-0.014600637128757069,0.2947263470589011,1.0,3.141592653589793
0.62,0.2975111113488156,-0.0054862283019690965,0.2975616912120723,1.0,3.141592653589793
0.63,0.30039515226305136,0.003810354301694097,0.30041931745985684,1.0,3.141592653589793
0.64,0.303008286044058,0.01328221096788725,0.30329925575172967,1.0,3.141592653589793
0.65,0.305342357289354,0.02292210076757749,0.306201531443947,1.0,3.141592653589793
0.66,0.30738937473395156,0.0327224432210817,0.3091261651651096,1.0,3.141592653589793
0.67,0.3091415244394467,0.04267532043291682,0.3120731726803782,1.0,3.141592653589793
0.68,0.3105911830568671,0.05277247970657827,0.3150425647544242,1.0,3.141592653589793
0.6900000000000001,0.31173093114734557,0.06300533664795113,0.3180343470132004,1.0,3.141592653589793
0.7000000000000001,0.3125535665441385,0.07336497876562052,0.32104851980462573,1.0,3.141592653589793
0.71,0.3130521177389668,0.08384216957588177,0.3240850780582822,1.0,3.141592653589793
0.72,0.3132198572751193,0.09442735321975668,0.32714401114422803,1.0,3.141592653589793
0.73,0.31305031512923304,0.10511065959879964,0.3302253027310397,1.0,3.141592653589793
0.74,0.31253729206314523,0.11588191003592546,0.33332893064319824,1.0,3.141592653589793
0.75,0.3116748729267057,0.12673062346690975,0.3364548667179445,1.0,3.141592653589793
0.76,0.31045743989194335,0.1376460231676026,0.33960307666173434,1.0,3.141592653589793
0.77,0.3088796855984992,0.14861704402125567,0.34277351990642974,1.0,3.141592653589793
0.78,0.30693662618977263,0.15963234032969284,0.3459661494653705,1.0,3.141592653589793
0.79,0.3046236142187776,0.17068029417135502,0.3491809117894776,1.0,3.141592653589793
0.8,0.3019363514022754,0.18174902430851908,0.3524177466235448,1.0,3.141592653589793
0.81,0.2988709012013383,0.19282639564523138,0.35567658686288506,1.0,3.141592653589793
0.8200000000000001,0.2954237012061087,0.20390002923670628,0.3589573584105024,1.0,3.141592653589793
0.8300000000000001,0.29159157530215274,0.21495731285012068,0.36225998003496834,1.0,3.141592653589793
0.84,0.2873717455954635,0.22598541207588663,0.3655843632291897,1.0,3.141592653589793
0.85,0.28276184407285676,0.23697128198760578,0.3689304120702601,1.0,3.141592653589793
0.86,0.2777599239742121,0.2479016793480033,0.3722980230805965,1.0,3.141592653589793
0.87,0.27236447085275955,0.2587631753572032,0.37568708509056636,1.0,3.141592653589793
0.88,0.26657441329938514,0.26954216893874533,0.37909747910282193,1.0,3.141592653589793
0.89,0.26038913330674046,0.2802249005577544,0.38252907815856146,1.0,3.141592653589793
0.9,0.2538084762487866,0.29079746656465666,0.3859817472059443,1.0,3.141592653589793
0.91,0.24683276045128763,0.3012458340567994,0.38945534297089757,1.0,3.141592653589793
0.92,0.2394627863286922,0.31155585624926374,0.3929497138305521,1.0,3.141592653589793
0.93,0.2316998450628081,0.32171328834507484,0.3964646996895569,1.0,3.141592653589793
0.9400000000000001,0.2235457267986845,0.3317038038939036,0.40000013185952493,1.0,3.141592653589793
0.9500000000000001,0.21500272833317158,0.34151301162722725,0.4035558329418697,1.0,3.141592653589793
0.96,0.20607366027173102,0.3511264727567666,0.40713161671429693,1.0,3.141592653589793
0.97,0.19676185362922333,0.3605297187218553,0.41072728802122216,1.0,3.141592653589793
0.98,0.1870711658506022,0.369708269370216,0.4143426426683883,1.0,3.141592653589793
0.99,0.17700598622770392,0.378647651555428,0.41797746732196334,1.0,3.141592653589793
1.0,0.16657124068863216,0.38733341813316524,0.4216315394124017,1.0,3.141592653589793
1.01,0.15577239593660847,0.39575116733707405,0.4253046270433562,1.0,3.141592653589793
1.02,0.14461546291558608,0.40388656251394167,0.42899648890593195,1.0,3.141592653589793
1.03,0.13310699958041317,0.4117253521965842,0.432706874198575,1.0,3.141592653589793
1.04,0.12125411294988094,0.4192533904916609,0.43643552255289164,1.0,3.141592653589793
1.05,0.10906446042160456,0.4264566577584015,0.44018216396569515,1.0,3.141592653589793
1.06,0.09654625032836152,0.433321281553017,0.4439465187375791,1.0,3.141592653589793
1.07,0.08370824171625393,0.4398335578123572,0.4477282974183148,1.0,3.141592653589793
1.08,0.07055974332586994,0.4459799722491829,0.4515272007593724,1.0,3.141592653589793
1.09,0.05711061175849468,0.45174722193023803,0.45534291967386215,1.0,3.141592653589793
1.1,0.04337124881036521,0.4571222370071461,0.45917513520419206,1.0,3.141592653589793
1.11,0.029352597958975393,0.46209220256901284,0.46302351849773554,1.0,3.141592653589793
1.12,0.015066139986518123,0.46664458058450325,0.4668877307907976,1.0,3.141592653589793
1.1300000000000001,0.0005238877267016873,0.47076713190007624,0.47076742340116734,1.0,3.141592653589793
1.1400000000000001,-0.014261620077603916,0.47444793826000803,0.47466223772953575,1.0,3.141592653589793
1.1500000000000001,-0.029277325817147568,0.477675424312824,0.47857180527005544,1.0,3.141592653589793
1.16,-0.04450966096940592,0.4804383795677857,0.48249574763030934,1.0,3.141592653589793
1.17,-0.05994455497049904,0.48272598026415703,0.4864336765609496,1.0,3.141592653589793
1.18,-0.07556744501290213,0.48452781111509896,0.4903851939952582,1.0,3.141592653589793
1.19,-0.09136328677438846,0.48583388688722334,0.4943498920988721,1.0,3.141592653589793
1.2,-0.1073165660820207,0.4866346737760782,0.4983273533299038,1.0,3.141592653589793
1.21,-0.12341131151332893,0.48692111053714127,0.5023171505096784,1.0,3.141592653589793
1.22,-0.13963110793507438,0.48668462933127127,0.5063188469042934,1.0,3.141592653589793
1.23,-0.1559591109782021,0.48591717624301434,0.5103319963171972,1.0,3.141592653589793
1.24,-0.1723780624457359,0.48461123142968343,0.5143561431929633,1.0,3.141592653589793
1.25,-0.18887030664846707,0.4827598288587349,0.5183908227324255,1.0,3.141592653589793
1.26,-0.20541780766133938,0.48035657559065587,0.5224355610193208,1.0,3.141592653589793
1.27,-0.22200216749143892,0.47739567056435445,0.5264898751585699,1.0,3.141592653589793
1.28,-0.2386046451464641,0.4738719228419195,0.5305532734263055,1.0,3.141592653589793
1.29,-0.2552061765904813,0.4697807692695848,0.5346252554317414,1.0,3.141592653589793
1.3,-0.2717873955716705,0.46511829151180495,0.538705312290952,1.0,3.141592653589793
1.31,-0.2883286553046385,0.4598812324155245,0.542792926812613,1.0,3.141592653589793
1.32,-0.3048100509877284,0.45406701166200486,0.5468875736957322,1.0,3.141592653589793
1.33,-0.3212114431335899,0.4476737406639663,0.5509887197393715,1.0,3.141592653589793
1.34,-0.3375124816891026,0.4407002366663072,0.5550958240643465,1.0,3.141592653589793
1.35,-0.3536926309185639,0.43314603600928425,0.5592083383468559,1.0,3.141592653589793
1.36,-0.36973119502188106,0.42501140651377517,0.5633257070639736,1.0,3.141592653589793
1.37,-0.3856073444573387,0.41629735894910175,0.5674473677509113,1.0,3.141592653589793
1.3800000000000001,-0.40130014293636307,0.4070056575448681,0.5715727512699288,1.0,3.141592653589793
1.3900000000000001,-0.41678857505557754,0.3971388295093666,0.5757012820907459,1.0,3.141592653589793
1.4000000000000001,-0.4320515745293445,0.38670017351832237,0.5798323785822816,1.0,3.141592653589793
1.41,-0.447068052983929,0.3756937671390894,0.5839654533155206,1.0,3.141592653589793
1.42,-0.4618169292724017,0.3641244731568693,0.5880999133772747,1.0,3.141592653589793
1.43,-0.4762771592674355,0.35199794477110846,0.5922351606945863,1.0,3.141592653589793
1.44,-0.4904277660872429,0.339320629631927,0.5963705923694853,1.0,3.141592653589793
1.45,-0.5042478707080633,0.3260997726882501,0.6005056010237907,1.0,3.141592653589793
1.46,-0.517716722914845,0.3123434178212436,0.6046395751536137,1.0,3.141592653589793
1.47,-0.5308137325400835,0.29806040823869767,0.6087718994931963,1.0,3.141592653589793
1.48,-0.543518500939183,0.28326038560815303,0.6129019553876919,1.0,3.141592653589793
1.49,-0.5558108526492137,0.2679537879088193,0.6170291211744633,1.0,3.141592653589793
1.5,-0.5676708671765379,0.2521518459846885,0.6211527725724555,1.0,3.141592653589793
1.51,-0.5790789108574993,0.235866578783697,0.6252722830791667,1.0,3.141592653589793
1.52,-0.5900156687351998,0.21911078727032693,0.6293870243747225,1.0,3.141592653589793
1.53,-0.6004621763943452,0.2018980470016607,0.6334963667325318,1.0,3.141592653589793
1.54,-0.6103998516952249,0.18424269935960091,0.6375996794359803,1.0,3.141592653589793
1.55,-0.6198105263471145,0.16615984143473775,0.6416963312005955,1.0,3.141592653589793
1.56,-0.628676477260746,0.14766531456017773,0.6457856906010984,1.0,3.141592653589793
1.57,-0.6369804576190001,0.1287756914965356,0.6498671265027349,1.0,3.141592653589793
1.58,-0.6447057276046274,0.1095082622722255,0.6539400084962645,1.0,3.141592653589793
1.59,-0.6518360847236156,0.08988101868616116,0.6580037073359654,1.0,3.141592653589793
1.6,-0.6583558936627838,0.06991263748297782,0.6620575953800009,1.0,3.141592653589793
1.61,-0.6642501156203108,0.04962246221391332,0.6661010470324811,1.0,3.141592653589793
1.62,-0.6695043370481923,0.02903048379952083,0.6701334391865353,1.0,3.141592653589793
1.6300000000000001,-0.674104797746071,0.008157319813424244,0.6741541516677101,1.0,3.141592653589793
1.6400000000000001,-0.6780384182464994,-0.012975807490643282,0.6781625676769907,1.0,3.141592653589793
1.6500000000000001,-0.681292826432478,-0.0343470943832639,0.6821580742327451,1.0,3.141592653589793
1.6600000000000001,-0.6838563833290543,-0.05593418006698418,0.6861400626108785,1.0,3.141592653589793
1.67,-0.6857182080118795,-0.07771417225600179,0.6901079287824904,1.0,3.141592653589793
1.68,-0.6868682015768921,-0.09966367389380242,0.6940610738483208,1.0,3.141592653589793
1.69,-0.6872970701167296,-0.12175881097181565,0.6979989044692771,1.0,3.141592653589793
1.7,-0.6869963466510609,-0.1439752614093819,0.7019208332923339,1.0,3.141592653589793
1.71,-0.6859584119597756,-0.16628828495262232,0.7058262793711082,1.0,3.141592653589793
1.72,-0.6841765142698604,-0.1886727540471885,0.7097146685804143,1.0,3.141592653589793
1.73,-0.6816447877488331,-0.21110318563735053,0.7135854340241183,1.0,3.141592653589793
1.74,-0.6783582697597831,-0.23355377384146475,0.7174380164356199,1.0,3.141592653589793
1.75,-0.6743129168353793,-0.2559984234515605,0.7212718645703031,1.0,3.141592653589793
1.76,-0.6695056193306482,-0.27841078420260124,0.7250864355893181,1.0,3.141592653589793
1.77,-0.6639342147168829,-0.3007642857549215,0.7288811954340652,1.0,3.141592653589793
1.78,-0.6575974994817165,-0.3230321733314198,0.7326556191907809,1.0,3.141592653589793
1.79,-0.6504952396031728,-0.34518754394931217,0.7364091914446393,1.0,3.141592653589793
1.8,-0.6426281795683731,-0.3672033831846188,0.7401414066228097,1.0,3.141592653589793
1.81,-0.6339980499105476,-0.389052602406082,0.7438517693259338,1.0,3.141592653589793
1.82,-0.6246075732410261,-0.4107080764138957,0.7475397946475132,1.0,3.141592653589793
1.83,-0.6144604687559972,-0.4321426814174709,0.751205008480722,1.0,3.141592653589793
1.84,-0.6035614552009835,-0.4533293332854762,0.7548469478121926,1.0,3.141592653589793
1.85,-0.5919162522791938,-0.4742410260005704,0.7584651610023494,1.0,3.141592653589793
1.86,-0.5795315804931647,-0.49485087025060137,0.7620592080518961,1.0,3.141592653589793
1.87,-0.5664151594123805,-0.5151321320875706,0.7656286608540975,1.0,3.141592653589793
1.8800000000000001,-0.5525757043628553,-0.5350582715853646,0.769173103432526,1.0,3.141592653589793
1.8900000000000001,-0.5380229215379653,-0.5546029814271326,0.7726921321639764,1.0,3.141592653589793
1.9000000000000001,-0.5227675015331184,-0.5737402253532402,0.7761853559862913,1.0,3.141592653589793
1.9100000000000001,-0.5068211113101317,-0.5924442764009532,0.7796523965908693,1.0,3.141592653589793
1.92,-0.4901963846004535,-0.6106897548674043,0.7830928885996642,1.0,3.141592653589793
1.93,-0.47290691075959085,-0.6284516659279588,0.7865064797265222,1.0,3.141592653589793
1.94,-0.4549672220882944,-0.6457054368428303,0.7898928309227333,1.0,3.141592653589793
1.95,-0.43639277963918066,-0.6624269536856918,0.7932516165067148,1.0,3.141592653589793
1.96,-0.41719995753054634,-0.6785925975290795,0.7965825242777756,1.0,3.141592653589793
1.97,-0.39740602579212897,-0.6941792800225993,0.7998852556139466,1.0,3.141592653589793
1.98,-0.3770291317704917,-0.7091644783012966,0.803159525553897,1.0,3.141592653589793
1.99,-0.35608828012454463,-0.7235262691630532,0.8064050628629901,1.0,3.141592653589793
2.0,-0.3346033114444581,-0.7372433624555109,0.8096216100835655,1.0,3.141592653589793
2.0100000000000002,-0.31259487952986215,-0.7502951336147854,0.8128089235695667,1.0,3.141592653589793
2.02,-0.2900844273657618,-0.7626616553001253,0.8159667735056674,1.0,3.141592653589793
2.0300000000000002,-0.2670941618370149,-0.7743237280706765,0.8190949439110758,1.0,3.141592653589793
2.04,-0.24364702722452164,-0.785262910052624,0.8221932326282322,1.0,3.141592653589793
2.05,-0.21976667752845017,-0.7954615455471993,0.8252614512966377,1.0,3.141592653589793
2.06,-0.19547744766587244,-0.8049027925323445,0.828299425312085,1.0,3.141592653589793
2.07,-0.17080432359210002,-0.8135706490132204,0.8313069937715835,1.0,3.141592653589793
2.08,-0.1457729113967918,-0.8214499781792051,0.8342840094042996,1.0,3.141592653589793
2.09,-0.12040940542754888,-0.8285265323275697,0.8372303384888553,1.0,3.141592653589793
2.1,-0.09474055549521626,-0.8347869755166074,0.8401458607573492,1.0,3.141592653589793
2.11,-0.06879363321647346,-0.8402189049136363,0.8430304692864861,1.0,3.141592653589793
2.12,-0.04259639755051697,-0.8448108708059817,0.8458840703762206,1.0,3.141592653589793
2.13,-0.016177059587715058,-0.8485523952457654,0.8487065834163361,1.0,3.141592653589793
2.14,0.010435753350949057,-0.8514339893020714,0.8514979407413982,1.0,3.141592653589793
2.15,0.03721303424403623,-0.8534471688968231,0.854258087474535,1.0,3.141592653589793
2.16,0.06412543346915082,-0.8545844692034795,0.8569869813605101,1.0,3.141592653589793
2.17,0.09114329641100558,-0.854839457590431,0.8596845925885648,1.0,3.141592653589793
2.18,0.1182367015169011,-0.8542067450937476,0.8623509036055169,1.0,3.141592653589793
2.19,0.14537549873822864,-0.8526819964066871,0.864985908919609,1.0,3.141592653589793
2.2,0.17252934829649605,-0.8502619383761099,0.8675896148956103,1.0,3.141592653589793
2.21,0.199667759712398,-0.8469443669986586,0.8701620395416744,1.0,3.141592653589793
2.22,0.22676013103659737,-0.842728152912239,0.8727032122884669,1.0,3.141592653589793
2.23,0.2537757882211537,-0.8376132453809815,0.8752131737610719,1.0,3.141592653589793
